%z[mm]	ϕ=0.1	ϕ=0.3	ϕ=0.5	ϕ=0.7	ϕ=0.9
0.0	317.4427542806947	318.0633067191167	318.0241668347105	318.06480709913495	318.0918975820347
1.0	317.56606254963924	318.0969336774435	318.02843673435615	318.0674261518999	318.0637863878083
2.0	317.68937081858377	318.13056063577017	318.03270663400184	318.07004520466484	318.035675193582
3.0	317.8126790875283	318.1641875940969	318.03697653364753	318.0726642574298	318.0075639993556
4.0	317.9359873564728	318.1978145524237	318.0412464332932	318.0752833101947	317.9794528051293
5.0	318.05929562541735	318.23144151075047	318.04551633293886	318.07790236295966	317.95134161090294
6.0	318.1826038943619	318.2650684690772	318.04978623258455	317.9782055650013	317.80468065562263
7.0	318.30591216330635	318.29869542740397	318.00075600787056	317.8055775542284	317.65375584236745
8.0	318.3938191021745	318.2930781194424	317.943627960609	317.6329495434554	317.5028310291123
9.0	318.3996175354758	318.2869926567027	317.8864999133474	317.46032153268254	317.3519062158572
10.0	318.40541596877705	318.280907193963	317.8293718660858	317.2876935219096	317.200981402602
11.0	318.4112144020783	318.27482173122337	317.7722438188242	317.1052410399099	316.9274597370202
12.0	318.4170128353796	318.2687362684837	317.71511577156264	316.85121625700924	316.64000705430044
13.0	318.4228112686809	318.262650805744	317.50649512484125	316.59719147410857	316.3525543715807
14.0	318.42860970198217	318.2565653430043	317.2435958180287	316.3431666912079	316.065101688861
15.0	318.43440813528343	318.12430670510395	316.9806965112162	316.0891419083072	315.7776490061412
16.0	318.4018619832438	317.98900141953743	316.7177972044036	315.8351171254065	315.4366595084545
17.0	318.34402063364007	317.8536961339709	316.454897897591	315.72315352456025	315.08475451730374
18.0	318.2861792840363	317.7183908484044	316.1919985907785	315.70156358204565	314.73284952615296
19.0	318.2283379344325	317.5830855628379	316.0659686078761	315.679973639531	314.3809445350022
20.0	318.17049658482875	317.44778027727136	316.04069993727427	315.6583836970164	314.0290395438514
21.0	318.112655235225	317.31247499170485	316.01543126667246	315.6367937545018	314.1621687373887
22.0	318.05481388562123	317.17180180606545	315.99016259607066	315.6243462012456	314.4904408202718
23.0	317.9969725360175	317.02657401438086	315.96489392546886	315.7269857619378	314.8187129031549
24.0	317.9111733687752	316.8813462226962	315.93962525486705	315.82962532262997	315.146984986038
25.0	317.82261390687233	316.7361184310116	315.9489175915298	315.93226488332215	315.47525706892105
26.0	317.73405444496944	316.590890639327	316.0207717980679	316.0349044440144	316.1230125667855
27.0	317.64549498306656	316.4456628476424	316.0926260046062	316.13754400470657	316.9877289980862
28.0	317.5569355211636	316.3004350559578	316.1644802111444	316.4976042150712	317.8524454293869
29.0	317.4683760592607	316.16816829711405	316.2363344176826	317.0805076605343	318.71716186068755
30.0	317.37981659735783	316.1457452119206	316.30818862422086	317.6634111059974	319.5818782919883
31.0	317.2990956434456	316.1233221267272	316.401097066516	318.2463145514605	320.21679010690616
32.0	317.2450101401246	316.10089904153375	316.62807955545776	318.8292179969236	320.5823587853425
33.0	317.19092463680363	316.0784759563403	316.8550620443995	319.4121214423867	320.9479274637788
34.0	317.13683913348257	316.05605287114685	317.0820445333413	320.1999955040127	321.3134961422151
35.0	317.08275363016156	316.0336297859534	317.309027022283	320.9941389614152	321.6790648206515
36.0	317.02866812684056	316.01120670076	317.53600951122473	321.7882824188177	322.64288981166334
37.0	316.97458262351955	316.06646692128555	317.7629920001665	322.58242587622016	324.8479424238842
38.0	316.9204971201986	316.1606555932388	318.4606583435684	323.3765693336227	327.0529950361051
39.0	316.86986357567173	316.2548442651921	319.22776556847407	324.15267453183804	329.25804764832594
40.0	316.82211649629653	316.3490329371454	319.9948727933797	324.90223985083065	331.46310026054675
41.0	316.77436941692133	316.4432216090987	320.7619800182853	325.65180516982326	333.5950132517281
42.0	316.72662233754613	316.537410281052	321.52908724319093	326.40137048881587	335.4152563162422
43.0	316.678875258171	316.6315989530053	322.2961944680966	327.15093580780854	337.2354993807563
44.0	316.6311281787958	316.75390709938637	322.95549746287026	327.9005011268011	339.0557424452705
45.0	316.5833810994206	316.97207985983187	323.54504671988997	328.83590354648993	340.8759855097846
46.0	316.53563402004545	317.1902526202773	324.13459597690957	329.80697610774996	342.71079913812656
47.0	316.5114674934205	317.4084253807228	324.7241452339293	330.77804866900993	344.7964266403924
48.0	316.4910337213309	317.62659814116824	325.31369449094893	331.74912123026985	346.88205414265826
49.0	316.4705999492413	317.84477090161374	325.90324374796865	332.7201937915298	348.9676816449241
50.0	316.4501661771517	318.0629436620592	326.5693693925241	333.69712841719706	351.05330914718996
51.0	316.4297324050621	318.2811164225046	327.38226229687837	334.6896510436579	353.1389366494558
52.0	316.40929863297254	318.61984358184077	328.19515520123264	335.6821736701187	355.16162621340186
53.0	316.3888648608829	318.9911153542786	329.00804810558685	336.67469629657944	357.17882358586724
54.0	316.37060456533885	319.3623871267164	329.82094100994107	337.66721892304025	359.1960209583326
55.0	316.3623380289204	319.7336588991542	330.63383391429534	338.659741549501	361.21321833079804
56.0	316.354071492502	320.104930671592	331.43848674747073	339.98800173445966	363.2304157032634
57.0	316.3458049560836	320.4762024440298	332.14651416633967	341.45499029232764	365.465408287871
58.0	316.3375384196652	320.8474742164676	332.8545415852086	342.92197885019556	367.76020147888187
59.0	316.3292718832468	321.2032195616479	333.5625690040776	344.38896740806354	370.05499466989266
60.0	316.32100534682843	321.52988237945937	334.27059642294654	345.8559559659315	372.3497878609035
61.0	316.31273881041	321.85654519727086	334.97862384181553	347.28290300087383	374.6445810519144
62.0	316.30976312398985	322.18320801508236	335.68665126068447	348.46777818379354	376.91795114762425
63.0	316.3123028406837	322.50987083289385	336.59115748752555	349.6526533667132	379.1797559520934
64.0	316.3148425573775	322.8365336507053	337.5404729402727	350.83752854963285	381.4415607565625
65.0	316.3173822740713	323.1631964685168	338.4897883930198	352.0224037325525	383.70336556103166
66.0	316.3199219907651	323.4898592863283	339.4391038457669	353.2072789154722	385.9651703655008
67.0	316.32246170745896	323.9062021263661	340.388419298514	354.6175153347458	388.08435828362417
68.0	316.3250014241528	324.3315570447981	341.33773475126117	356.1934683174966	390.06883310663807
69.0	316.3275411408466	324.75691196323015	342.5064125103289	357.76942130024736	392.05330792965196
70.0	316.3423531083812	325.18226688166214	343.85456447807366	359.34537428299814	394.03778275266586
71.0	316.36022190006406	325.6076218000942	345.2027164458184	360.92132726574886	396.02225757567976
72.0	316.37809069174693	326.0329767185262	346.55086841356314	362.49212269462237	398.1313692855997
73.0	316.39595948342986	326.45833163695823	347.8990203813079	363.5805675244727	400.44462642821776
74.0	316.41382827511273	326.8952533133885	349.2471723490527	364.66901235432306	402.75788357083576
75.0	316.43169706679566	327.3452543530929	350.44218755246516	365.75745718417335	405.07114071345376
76.0	316.44956585847854	327.79525539279734	351.25437080315413	366.8459020140237	407.3843978560718
77.0	316.4678493308117	328.2452564325018	352.0665540538431	367.93434684387404	409.780768791615
78.0	316.489585426056	328.6952574722062	352.8787373045321	369.31522783493256	412.43476391681793
79.0	316.51132152130026	329.1452585119106	353.69092055522106	371.06097725160924	415.08875904202097
80.0	316.5330576165446	329.595259551615	354.50310380591003	372.80672666828593	417.74275416722395
81.0	316.55479371178893	330.04758004554844	355.32068960353826	374.5524760849627	420.39674929242693
82.0	316.57652980703324	330.5750456317626	356.38493239115957	376.29822550163937	423.00588327645636
83.0	316.59826590227755	331.1025112179767	357.4491751787809	378.04397491831605	425.2473979464154
84.0	316.62000199752185	331.62997680419085	358.5134179664022	379.6692344076195	427.48891261637436
85.0	316.64170160741065	332.157442390405	359.57766075402355	381.27794271416184	429.73042728633334
86.0	316.6633508773789	332.6849079766191	360.6419035416449	382.88665102070416	431.9719419562923
87.0	316.6850001473472	333.21237356283325	361.70614632926623	384.4953593272465	434.2134566262513
88.0	316.7066494173155	333.73983914904744	362.6233270371027	386.1040676337888	436.4106305339855
89.0	316.72829868728377	334.25917361420676	363.49333811477425	387.7737930093263	438.60660191588096
90.0	316.74994795725206	334.7728709584617	364.3633491924458	389.57710373992006	440.8025732977764
91.0	316.77159722722035	335.28656830271666	365.23336027011743	391.38041447051387	442.99854467967185
92.0	316.79324649718865	335.8002656469716	366.103371347789	393.1837252011076	445.19451606156736
93.0	316.8128794119556	336.3139629912265	366.97338242546056	394.98703593170137	446.85569666697563
94.0	316.8317786228679	336.8276603354814	368.0933086441933	396.7903466622951	448.4138221173257
95.0	316.85067783378014	337.34135767973635	369.470389278803	398.4051874272482	449.97194756767584
96.0	316.86957704469245	337.86336981122787	370.8474699134126	399.9564891500506	451.530073018026
97.0	316.8884762556047	338.4320593630636	372.2245505480223	401.5077908728529	453.0881984683761
98.0	316.907375466517	339.0007489148993	373.60163118263193	403.0590925956553	454.3268215505107
99.0	316.92627467742926	339.56943846673505	374.97871181724156	404.6103943184576	455.4306367231154
100.0	316.9464007074806	340.1381280185708	376.3300396413453	406.20143522878317	456.53445189572017
101.0	316.98729377585295	340.7068175704065	377.59445382329415	407.97085332770706	457.6382670683249
102.0	317.0281868442253	341.27550712224223	378.858868005243	409.74027142663095	458.7420822409296
103.0	317.06907991259766	341.8441966740779	380.1232821871919	411.50968952555485	460.54848578822583
104.0	317.10997298097	342.3893625923331	381.3876963691407	413.27910762447874	462.88902235541724
105.0	317.15086604934237	342.9250053491906	382.65211055108955	415.0485257234026	465.22955892260853
106.0	317.19175911771475	343.4606481060481	383.9165247330384	416.6231316561414	467.5700954897999
107.0	317.2326521860871	343.9962908629056	384.71775347917514	418.07656053276077	469.91063205699123
108.0	317.268601675589	344.5319336197631	385.50182919239705	419.5299894093801	471.972112566366
109.0	317.2964345065574	345.06757637662065	386.2859049056189	420.9834182859995	473.6680917780904
110.0	317.3242673375258	345.60321913347815	387.06998061884076	422.43684716261885	475.3640709898149
111.0	317.3521001684942	346.1525026230712	387.85405633206267	423.8819464617536	477.0600502015393
112.0	317.37993299946254	346.7382110877074	388.6381320452845	425.1715293813525	478.7560294132637
113.0	317.40776583043095	347.32391955234357	389.6816698068812	426.46111230095147	480.43481992369857
114.0	317.4355986613993	347.9096280169798	390.83640362158235	427.75069522055037	482.0730760660488
115.0	317.4634314923677	348.49533648161605	391.9911374362835	429.0402781401493	483.71133220839897
116.0	317.52010283274524	349.08104494625223	393.1458712509846	430.3298610597482	485.3495883507492
117.0	317.58905043349455	349.6667534108884	394.3006050656858	431.9538673835404	486.9878444930994
118.0	317.6579980342438	350.2524618755246	395.45533888038693	433.9327549968275	488.5406124721751
119.0	317.7269456349931	350.7375051429341	396.6718219739276	435.91164261011465	489.65316048720064
120.0	317.79589323574237	351.20237939429717	397.96827432268526	437.89053022340175	490.7657085022262
121.0	317.8648408364917	351.6672536456602	399.2647266714428	439.86941783668885	491.87825651725177
122.0	317.93378843724093	352.1321278970232	400.56117902020037	441.848305449976	492.99080453227737
123.0	318.00249880764454	352.5970021483863	401.857631368958	443.4031933729333	494.0989057781131
124.0	318.0617432233595	353.0618763997494	403.15408371771565	444.92095268654197	495.0494692117339
125.0	318.1209876390745	353.5267506511124	404.4080502059617	446.4387120001507	496.0000326453547
126.0	318.1802320547895	354.01651177131305	405.4566729729881	447.9564713137595	496.9505960789755
127.0	318.2394764705045	354.5445965743551	406.5052957400145	449.4742306273682	497.90115951259634
128.0	318.2987208862194	355.07268137739715	407.553918507041	450.9896618506794	498.85172294621714
129.0	318.3579653019344	355.60076618043917	408.6025412740674	452.50084102749116	500.1192534496142
130.0	318.4172097176494	356.1288509834812	409.65116404109375	454.01202020430287	501.42504629893244
131.0	318.4740760682251	356.65693578652326	410.69978680812017	455.52319938111464	502.73083914825077
132.0	318.52647930767245	357.1850205895653	412.1658248281153	457.0343785579264	504.0366319975691
133.0	318.57888254711986	357.71310539260736	413.6745889127151	458.5455577347381	505.34242484688735
134.0	318.6312857865672	358.38732372163673	415.1833529973148	459.83231553878545	506.80427797117545
135.0	318.68368902601463	359.0685333547523	416.69211708191455	461.05874241555154	508.3161930539558
136.0	318.73609226546205	359.7497429878679	418.20088116651425	462.2851692923176	509.82810813673615
137.0	318.7884955049094	360.4309526209835	419.709645251114	463.5115961690837	511.34002321951647
138.0	318.84089874435676	361.112162254099	420.91735030125534	464.7380230458498	512.8519383022968
139.0	318.921868248957	361.7933718872146	421.9578022658254	465.94384266029175	514.2812619805075
140.0	319.0169157900286	362.47458152033016	422.99825423039545	467.07763223808865	515.6603852233193
141.0	319.1119633311001	363.1636780253613	424.0387061949655	468.2114218158856	517.0395084661312
142.0	319.2070108721717	363.8602028332152	425.07915815953555	469.3452113936825	518.4186317089432
143.0	319.3020584132432	364.5567276410692	426.11961012410563	470.4790009714794	519.7977549517551
144.0	319.3971059543147	365.25325244892315	427.0074157282436	471.6127905492763	521.1560635520041
145.0	319.4921534953863	365.94977725677705	427.6446534359825	472.76471779638666	522.4924285193775
146.0	319.5872010364578	366.646302064631	428.2818911437214	473.9261236907091	523.828793486751
147.0	319.6701867219371	367.342826872485	428.9191288514603	475.0875295850316	525.1651584541244
148.0	319.7530767935904	368.0305567180179	429.5563665591992	476.24893547935403	526.5015234214978
149.0	319.83596686524373	368.61074556204017	430.19360426693817	477.4103413736765	527.7962765585302
150.0	319.918856936897	369.1909344060624	430.90557945093445	478.6254536237223	529.0143032343577
151.0	320.0017470085503	369.7711232500846	432.1967579259333	480.37641539048235	530.2323299101853
152.0	320.0846370802036	370.35131209410685	433.4879364009321	482.12737715724234	531.4503565860128
153.0	320.1675271518569	370.9315009381291	434.7791148759309	483.87833892400243	532.6683832618404
154.0	320.2412424961549	371.5116897821513	436.0702933509298	485.6293006907625	533.8979313073935
155.0	320.29454608120676	372.0918786261735	437.36147182592856	487.3802624575225	535.1691815803699
156.0	320.34784966625864	372.790431297032	438.65265030092735	488.8387901778824	536.4404318533465
157.0	320.4011532513105	373.5566600050964	439.88473353850827	490.0331788364416	537.7116821263229
158.0	320.4544568363624	374.3228887131608	441.10638835674786	491.2275674950008	538.9829323992993
159.0	320.5077604214143	375.08911742122524	442.3280431749874	492.42195615356	540.2475919616072
160.0	320.56106400646615	375.85534612928967	443.5496979932269	493.61634481211917	541.4377832895643
161.0	320.61436759151803	376.62157483735405	444.77135281146644	494.8107334706784	542.6279746175213
162.0	320.68922007131516	377.3878035454185	445.993007629706	495.88150345326835	543.8181659454784
163.0	320.7768338084414	378.1253158543423	447.1680797249221	496.94708798292936	545.0083572734355
164.0	320.8644475455676	378.7456700899095	448.31020328107246	498.0126725125904	546.1985486013925
165.0	320.9520612826938	379.36602432547664	449.45232683722276	499.0782570422515	547.3542056507449
166.0	321.03967501982004	379.9863785610438	450.5944503933731	500.1438415719125	548.5078969615927
167.0	321.1272887569463	380.60673279661097	451.7365739495234	501.28460524513275	549.6615882724404
168.0	321.21490249407253	381.22708703217813	452.87869750567376	502.54096869910273	550.8152795832883
169.0	321.30251623119875	381.8474412677453	453.9919885645308	503.7973321530728	551.9689708941361
170.0	321.3953530842182	382.46779550331246	455.0444113883485	505.0536956070428	553.0939867533717
171.0	321.4885071796569	383.12560634763855	456.0968342121662	506.3100590610128	554.2123190836297
172.0	321.58166127509566	383.7954091958048	457.1492570359839	507.56642251498283	555.3306514138878
173.0	321.6748153705344	384.46521204397106	458.2016798598015	508.7350419175151	556.4489837441458
174.0	321.76796946597324	385.1350148921373	459.2541026836192	509.88548378003003	557.5673160744038
175.0	321.861123561412	385.8048177403036	460.29553957925975	511.035925642545	558.666115535993
176.0	321.9542776568507	386.47462058846986	461.1557122319221	512.1863675050599	559.7555452773689
177.0	322.04384770009955	387.1444234366361	462.01588488458447	513.3368093675749	560.8449750187448
178.0	322.12258632351876	387.8790079304881	462.8760575372468	514.5415394208774	561.9344047601207
179.0	322.201324946938	388.75245354482524	463.7362301899092	515.8986285425411	563.0238345014967
180.0	322.2800635703572	389.62589915916243	464.59640284257154	517.2557176642048	564.1000646834264
181.0	322.3588021937764	390.4993447734996	465.4565754952339	518.6128067858685	565.1650803559725
182.0	322.4375408171956	391.3727903878368	466.1405911344596	519.9698959075322	566.2300960285187
183.0	322.5162794406149	392.246236002174	466.77858399331166	521.326985029196	567.2951117010649
184.0	322.5950180640341	393.1196816165112	467.4165768521636	522.319429099803	568.360127373611
185.0	322.6892232095442	393.99312723084836	468.0545697110156	523.153378681818	569.4478387674898
186.0	322.796498725707	395.0274574013886	468.6925625698675	523.9873282638331	570.568825490182
187.0	322.9037742418698	396.08398794361693	469.33055542871955	524.8212778458483	571.6898122128742
188.0	323.0110497580326	397.1405184858453	469.8957583512858	525.6552274278632	572.8107989355664
189.0	323.1183252741954	398.1970490280737	470.39604065817133	526.5074986271103	573.9317856582585
190.0	323.2256007903582	399.253579570302	470.8963229650568	527.4809301822485	575.0339094786459
191.0	323.332876306521	400.31011011253037	471.39660527194235	528.4543617373868	576.0851180853225
192.0	323.44015182268384	401.3666406547587	471.8968875788279	529.4277932925249	577.136326691999
193.0	323.5347749695791	402.21151876126186	472.39716988571337	530.401224847663	578.1875352986757
194.0	323.62696482901373	402.7863328249522	472.88628637911967	531.3746564028013	579.2387439053523
195.0	323.7191546884484	403.3611468886425	473.344319704461	532.2943407973677	580.2732814501477
196.0	323.8113445478831	403.9359609523328	473.8023530298022	533.1727585446522	581.2011500457013
197.0	323.90353440731775	404.5107750160231	474.2603863551434	534.0511762919366	582.1290186412549
198.0	323.9957242667524	405.08558907971343	474.71841968048466	534.929594039221	583.0568872368085
199.0	324.08791412618706	405.66040314340376	475.1764530058259	535.8080117865055	583.9847558323621
200.0	324.17879841668054	406.2352172070941	475.6344863311675	536.6864295337899	584.9126244279157
201.0	324.2627223563038	406.8041302968653	476.2945050631687	537.56439833581	585.8308241949417
202.0	324.34664629592703	407.3730433866366	476.9545237951698	538.44236713783	586.7490239619677
203.0	324.4305702355503	407.9419564764079	477.61454252717095	539.3203359398501	587.6672237289937
204.0	324.5144941751735	408.51086956617917	478.27456125917206	540.1983047418701	588.5854234960196
